# total [l(l+1)/2pi] C_l's (units: [microK]^2)
# for l=2 to 2500, i.e. number of multipoles equal to 2499
#
# -> if you don't want to see such a header, set 'headers' to 'no' in input file
# -> for CMB lensing (d), these are C_l^dd for the deflection field.
#    Remember the conversion factors:
#    C_l^dd (deflection) = l(l+1) C_l^phi-phi
#    C_l^gg (shear/convergence) = 1/4 (l(l+1))^2 C_l^phi-phi
#
# 1:l     2:TT                     3:dd                     4:dT                 
    2       1.367998384545e+10       3.312978427541e+00       5.763316749279e+04 
    3       2.803092638787e+10       2.115186717532e+01       2.401630468150e+05 
    4       4.429219123541e+10       3.546314120475e+01       2.767084328010e+05 
    5       6.525900802439e+10       3.506082438708e+01       2.652408352136e+05 
    6       9.132943019681e+10       3.912435433748e+01       3.406937126690e+05 
    7       1.214728557841e+11       4.861572493518e+01       4.243371220361e+05 
    8       1.552656277661e+11       5.656334555695e+01       4.655354120964e+05 
    9       1.931497088815e+11       6.110068995802e+01       4.859708046512e+05 
   10       2.356268471400e+11       6.746070114736e+01       5.387992884859e+05 
   11       2.824326747910e+11       7.216393990852e+01       5.891573170497e+05 
   12       3.331891229323e+11       7.858376835204e+01       6.361578354464e+05 
   13       3.879680001181e+11       8.500642894744e+01       6.685237083949e+05 
   14       4.469884685704e+11       9.143112413194e+01       7.025732777319e+05 
   15       5.103470629945e+11       9.785707993987e+01       7.459281354388e+05 
   16       5.779207722058e+11       1.042835280134e+02       7.928270809424e+05 
   17       6.496591488182e+11       1.107094605288e+02       8.350207237106e+05 
   18       7.255176706131e+11       1.171082507254e+02       8.709713374002e+05 
   19       8.055377526325e+11       1.235547107494e+02       9.043018839915e+05 
   20       8.897932662574e+11       1.299672799383e+02       9.401271784838e+05 
   21       9.782824719252e+11       1.363833583083e+02       9.788944279407e+05 
   22       1.070974442626e+12       1.427792862477e+02       1.018286667550e+06 
   23       1.167851413401e+12       1.491860500696e+02       1.056412131102e+06 
   24       1.268901503681e+12       1.555688005240e+02       1.091259111479e+06 
   25       1.374134456140e+12       1.619526968696e+02       1.123212016224e+06 
   26       1.483567615195e+12       1.683177094147e+02       1.153552856509e+06 
   27       1.597211227491e+12       1.746737808923e+02       1.183047851054e+06 
   28       1.715071878096e+12       1.809921454991e+02       1.212178277368e+06 
   29       1.837147035979e+12       1.873147982522e+02       1.241152765798e+06 
   30       1.963429296997e+12       1.936491576109e+02       1.269839749894e+06 
   31       2.093911647046e+12       1.999372454008e+02       1.297864258544e+06 
   32       2.228600114786e+12       2.062057977693e+02       1.325206806550e+06 
   33       2.367505907303e+12       2.124693144202e+02       1.351807084165e+06 
   34       2.510638168885e+12       2.186972436923e+02       1.377471830789e+06 
   35       2.657989786358e+12       2.249087701744e+02       1.402262382908e+06 
   36       2.809546300085e+12       2.311042872108e+02       1.426230830848e+06 
   37       2.965293305523e+12       2.372505092041e+02       1.449348117581e+06 
   38       3.125230012974e+12       2.433742007899e+02       1.471701701806e+06 
   39       3.289360052567e+12       2.494999516528e+02       1.493344454911e+06 
   40       3.457687906222e+12       2.556135805736e+02       1.514214935496e+06 
   41       3.630218666601e+12       2.616741600194e+02       1.534190182030e+06 
   42       3.806957102119e+12       2.676979085835e+02       1.553343632775e+06 
   43       3.987908369836e+12       2.737028946621e+02       1.571765540516e+06 
   44       4.173078307530e+12       2.796790877906e+02       1.589479275865e+06 
   45       4.362472448175e+12       2.855990583282e+02       1.606467424866e+06 
   46       4.556092644529e+12       2.914823721018e+02       1.622803437851e+06 
   47       4.753939484159e+12       2.973523485940e+02       1.638550898787e+06 
   48       4.956013187015e+12       3.032138472604e+02       1.653715689993e+06 
   49       5.162313575674e+12       3.090471915698e+02       1.668234159421e+06 
   50       5.372841618258e+12       3.148194098163e+02       1.682011747386e+06 
   51       5.587604619965e+12       3.205425336671e+02       1.695087970260e+06 
   52       5.806612389281e+12       3.262342662994e+02       1.707515938853e+06 
   53       6.029875831659e+12       3.318991184717e+02       1.719310115855e+06 
   54       6.257406993773e+12       3.375244759420e+02       1.730438981989e+06 
   55       6.489215171587e+12       3.430893457188e+02       1.740854323873e+06 
   56       6.725294001013e+12       3.486066052059e+02       1.750610426021e+06 
   57       6.965631237800e+12       3.540935294386e+02       1.759775125219e+06 
   58       7.210212306002e+12       3.595581135397e+02       1.768392331601e+06 
   59       7.459020188873e+12       3.649964536306e+02       1.776477469993e+06 
   60       7.712035319750e+12       3.703898770476e+02       1.784012704966e+06 
   61       7.969240226913e+12       3.757140894038e+02       1.790968395133e+06 
   62       8.230634933297e+12       3.809791517608e+02       1.797387711851e+06 
   63       8.496224835524e+12       3.862015165216e+02       1.803321386870e+06 
   64       8.766016295866e+12       3.913918011845e+02       1.808800723134e+06 
   65       9.040016683977e+12       3.965531803542e+02       1.813834419477e+06 
   66       9.318234418621e+12       4.016796356285e+02       1.818405260887e+06 
   67       9.600679009406e+12       4.067540586963e+02       1.822466674342e+06 
   68       9.887360839778e+12       4.117561090916e+02       1.825967231439e+06 
   69       1.017829037168e+13       4.166944583029e+02       1.828941162545e+06 
   70       1.047347885395e+13       4.215836883335e+02       1.831438720652e+06 
   71       1.077293860131e+13       4.264345724990e+02       1.833498724497e+06 
   72       1.107668302945e+13       4.312530769384e+02       1.835146722711e+06 
   73       1.138472669015e+13       4.360392816148e+02       1.836393086447e+06 
   74       1.169708530642e+13       4.407862184079e+02       1.837231030483e+06 
   75       1.201377580756e+13       4.454786238985e+02       1.837634562817e+06 
   76       1.233481257809e+13       4.500993510783e+02       1.837574853070e+06 
   77       1.266019533706e+13       4.546544888760e+02       1.837079387367e+06 
   78       1.298991910197e+13       4.591548280916e+02       1.836185036194e+06 
   79       1.332397773710e+13       4.636082849269e+02       1.834919807515e+06 
   80       1.366236391099e+13       4.680192463959e+02       1.833301635746e+06 
   81       1.400506905390e+13       4.723878686410e+02       1.831337128952e+06 
   82       1.435208331527e+13       4.767093268979e+02       1.829020274265e+06 
   83       1.470339552124e+13       4.809730158509e+02       1.826331101518e+06 
   84       1.505899368485e+13       4.851673349107e+02       1.823248995672e+06 
   85       1.541886672715e+13       4.892978654791e+02       1.819799570791e+06 
   86       1.578300296480e+13       4.933735713100e+02       1.816016862729e+06 
   87       1.615138954991e+13       4.974012625593e+02       1.811928911985e+06 
   88       1.652401243676e+13       5.013851524859e+02       1.807556994216e+06 
   89       1.690085634866e+13       5.053263852477e+02       1.802914826499e+06 
   90       1.728190474461e+13       5.092225340906e+02       1.798007749354e+06 
   91       1.766713978614e+13       5.130670692301e+02       1.792831884506e+06 
   92       1.805654230404e+13       5.168487947227e+02       1.787373268416e+06 
   93       1.845010006022e+13       5.205563557655e+02       1.781618452627e+06 
   94       1.884783402694e+13       5.241946923106e+02       1.775591043377e+06 
   95       1.924977601694e+13       5.277723707474e+02       1.769321721669e+06 
   96       1.965596082002e+13       5.312966487465e+02       1.762836993803e+06 
   97       2.006642628371e+13       5.347732034321e+02       1.756158697120e+06 
   98       2.048121339386e+13       5.382058431326e+02       1.749303491616e+06 
   99       2.090036635530e+13       5.415962023425e+02       1.742282337425e+06 
  100       2.132393267245e+13       5.449434195318e+02       1.735099958187e+06 
  101       2.175196322998e+13       5.482437974374e+02       1.727754290277e+06 
  102       2.218451237339e+13       5.514904454714e+02       1.720235917919e+06 
  103       2.262163798970e+13       5.546729038824e+02       1.712527494170e+06 
  104       2.306338670809e+13       5.577810036988e+02       1.704613016863e+06 
  105       2.350974705162e+13       5.608185381163e+02       1.696509116999e+06 
  106       2.396069007788e+13       5.637925080566e+02       1.688238982597e+06 
  107       2.441618361187e+13       5.667090231271e+02       1.679822741552e+06 
  108       2.487619216316e+13       5.695731314260e+02       1.671277149803e+06 
  109       2.534067684294e+13       5.723886400845e+02       1.662615271597e+06 
  110       2.580959528122e+13       5.751579263605e+02       1.653846151861e+06 
  111       2.628290154387e+13       5.778817390993e+02       1.644974480663e+06 
  112       2.676054604975e+13       5.805589903751e+02       1.636000249793e+06 
  113       2.724247548788e+13       5.831865371300e+02       1.626918401424e+06 
  114       2.772863273445e+13       5.857589526225e+02       1.617718468885e+06 
  115       2.821895677005e+13       5.882682875041e+02       1.608384209541e+06 
  116       2.871339796852e+13       5.907070296383e+02       1.598901453856e+06 
  117       2.921196624977e+13       5.930783647417e+02       1.589284103626e+06 
  118       2.971468865310e+13       5.953879179286e+02       1.579552158348e+06 
  119       3.022159454162e+13       5.976406530686e+02       1.569723730631e+06 
  120       3.073271565530e+13       5.998407613441e+02       1.559814865207e+06 
  121       3.124808616401e+13       6.019915443824e+02       1.549839353798e+06 
  122       3.176774272051e+13       6.040952918644e+02       1.539808545815e+06 
  123       3.229172451352e+13       6.061531535139e+02       1.529731154919e+06 
  124       3.282007332074e+13       6.081650053689e+02       1.519613061415e+06 
  125       3.335283356183e+13       6.101293102377e+02       1.509457110502e+06 
  126       3.389005235152e+13       6.120429722437e+02       1.499262906359e+06 
  127       3.443177955256e+13       6.139011853602e+02       1.489026602086e+06 
  128       3.497806782879e+13       6.156972758385e+02       1.478740685485e+06 
  129       3.552896337493e+13       6.174251460248e+02       1.468399011235e+06 
  130       3.608447684354e+13       6.190875789192e+02       1.458013310627e+06 
  131       3.664460931404e+13       6.206894308369e+02       1.447598980446e+06 
  132       3.720936131656e+13       6.222351136813e+02       1.437169955586e+06 
  133       3.777873281821e+13       6.237285243456e+02       1.426738590256e+06 
  134       3.835272320943e+13       6.251729709954e+02       1.416315536779e+06 
  135       3.893133129027e+13       6.265710961817e+02       1.405909621970e+06 
  136       3.951455525672e+13       6.279247967338e+02       1.395527721106e+06 
  137       4.010239268701e+13       6.292351403812e+02       1.385174629482e+06 
  138       4.069484052796e+13       6.305022790544e+02       1.374852931552e+06 
  139       4.129189508125e+13       6.317253588135e+02       1.364562867657e+06 
  140       4.189355198976e+13       6.329024263547e+02       1.354302198345e+06 
  141       4.249980622389e+13       6.340303320435e+02       1.344066066269e+06 
  142       4.311065206785e+13       6.351046294240e+02       1.333846855675e+06 
  143       4.372608310598e+13       6.361194711544e+02       1.323634049483e+06 
  144       4.434609313359e+13       6.370696615031e+02       1.313418955343e+06 
  145       4.497067901951e+13       6.379575089159e+02       1.303209986786e+06 
  146       4.559983810104e+13       6.387871102598e+02       1.293019362675e+06 
  147       4.623356727647e+13       6.395622654742e+02       1.282858367870e+06 
  148       4.687186299672e+13       6.402864335409e+02       1.272737284553e+06 
  149       4.751472125698e+13       6.409626866997e+02       1.262665322304e+06 
  150       4.816213758831e+13       6.415936628827e+02       1.252650546920e+06 
  151       4.881410704927e+13       6.421815163433e+02       1.242699807992e+06 
  152       4.947062421758e+13       6.427278664523e+02       1.232818665222e+06 
  153       5.013168318170e+13       6.432337446374e+02       1.223011313497e+06 
  154       5.079727753250e+13       6.436995394390e+02       1.213280506707e+06 
  155       5.146740035486e+13       6.441249396576e+02       1.203627480315e+06 
  156       5.214204421931e+13       6.445088755669e+02       1.194051872676e+06 
  157       5.282120117365e+13       6.448494581673e+02       1.184551645105e+06 
  158       5.350486273457e+13       6.451439164531e+02       1.175123000691e+06 
  159       5.419301987932e+13       6.453885326695e+02       1.165760301867e+06 
  160       5.488566303727e+13       6.455785755324e+02       1.156455986722e+06 
  161       5.558278772121e+13       6.457099457702e+02       1.147203818377e+06 
  162       5.628441199832e+13       6.457845912086e+02       1.138009300310e+06 
  163       5.699056055536e+13       6.458059121485e+02       1.128880479340e+06 
  164       5.770125921547e+13       6.457771036634e+02       1.119824691574e+06 
  165       5.841653495574e+13       6.457011279494e+02       1.110848519629e+06 
  166       5.913641592476e+13       6.455806856863e+02       1.101957749176e+06 
  167       5.986093146022e+13       6.454181863992e+02       1.093157324802e+06 
  168       6.059011210651e+13       6.452157178065e+02       1.084451305192e+06 
  169       6.132398963220e+13       6.449750141428e+02       1.075842817626e+06 
  170       6.206259704774e+13       6.446974234415e+02       1.067334011804e+06 
  171       6.280596862292e+13       6.443838737670e+02       1.058926012983e+06 
  172       6.355413990453e+13       6.440348383807e+02       1.050618874432e+06 
  173       6.430714773388e+13       6.436502998309e+02       1.042411529212e+06 
  174       6.506503026441e+13       6.432297129508e+02       1.034301741274e+06 
  175       6.582782697924e+13       6.427719667539e+02       1.026286055869e+06 
  176       6.659557870874e+13       6.422753452126e+02       1.018359749290e+06 
  177       6.736832764815e+13       6.417374869078e+02       1.010516777920e+06 
  178       6.814611737510e+13       6.411553435361e+02       1.002749726607e+06 
  179       6.892899286722e+13       6.405251372625e+02       9.950497563572e+05 
  180       6.971699378360e+13       6.398436693504e+02       9.874111623306e+05 
  181       7.051013367540e+13       6.391125742760e+02       9.798457696347e+05 
  182       7.130841915265e+13       6.383346528958e+02       9.723701479491e+05 
  183       7.211185646465e+13       6.375125621122e+02       9.650011486063e+05 
  184       7.292045149270e+13       6.366487974827e+02       9.577559009595e+05 
  185       7.373420974292e+13       6.357456752755e+02       9.506518086331e+05 
  186       7.455313633896e+13       6.348053139630e+02       9.437065456586e+05 
  187       7.537723601479e+13       6.338296151492e+02       9.369380524921e+05 
  188       7.620651310749e+13       6.328202439217e+02       9.303645319177e+05 
  189       7.704097154996e+13       6.317786086240e+02       9.240044448328e+05 
  190       7.788061486370e+13       6.307058400409e+02       9.178765059183e+05 
  191       7.872544615161e+13       6.296027699901e+02       9.119996791919e+05 
  192       7.957546809071e+13       6.284699093138e+02       9.063931734453e+05 
  193       8.043068292492e+13       6.273074252645e+02       9.010764375654e+05 
  194       8.129109245785e+13       6.261151182774e+02       8.960691557384e+05 
  195       8.215669804551e+13       6.248923981236e+02       8.913912425387e+05 
  196       8.302750058912e+13       6.236382594371e+02       8.870628379008e+05 
  197       8.390350052783e+13       6.223512566104e+02       8.831043019748e+05 
  198       8.478469783156e+13       6.210294780502e+02       8.795362098662e+05 
  199       8.567109199366e+13       6.196705197884e+02       8.763793462594e+05 
  200       8.656268202377e+13       6.182714584412e+02       8.736546999237e+05 
  201       8.745946258007e+13       6.168298730590e+02       8.713744569557e+05 
  202       8.836141207342e+13       6.153471333321e+02       8.695139141709e+05 
  203       8.926850369858e+13       6.138255242348e+02       8.680365551103e+05 
  204       9.018070919972e+13       6.122672268002e+02       8.669026992554e+05 
  205       9.109799885181e+13       6.106743070801e+02       8.660694145597e+05 
  206       9.202034144195e+13       6.090487047928e+02       8.654904290724e+05 
  207       9.294770425074e+13       6.073922216524e+02       8.651160416527e+05 
  208       9.388005303364e+13       6.057065093797e+02       8.648930317770e+05 
  209       9.481735200230e+13       6.039930573891e+02       8.647645684362e+05 
  210       9.575956380593e+13       6.022531801487e+02       8.646701181259e+05 
  211       9.670664951266e+13       6.004880042119e+02       8.645453519267e+05 
  212       9.765856859086e+13       5.986984549142e+02       8.643220516778e+05 
  213       9.861527889056e+13       5.968852427353e+02       8.639280152405e+05 
  214       9.957673662474e+13       5.950488493204e+02       8.632869608544e+05 
  215       1.005428963507e+14       5.931895131593e+02       8.623184305848e+05 
  216       1.015137109515e+14       5.913072149190e+02       8.609376928613e+05 
  217       1.024891316170e+14       5.894016624273e+02       8.590556441087e+05 
  218       1.034691078259e+14       5.874722753032e+02       8.565787094688e+05 
  219       1.044535873261e+14       5.855181692317e+02       8.534087426141e+05 
  220       1.054425161171e+14       5.835381398792e+02       8.494429246529e+05 
  221       1.064358384304e+14       5.815306464463e+02       8.445736621262e+05 
  222       1.074334967117e+14       5.794937948551e+02       8.386884840959e+05 
  223       1.084354316017e+14       5.774253205674e+02       8.316699383247e+05 
  224       1.094416287293e+14       5.753233943831e+02       8.234254966581e+05 
  225       1.104522624722e+14       5.731891927177e+02       8.139807022538e+05 
  226       1.114675614043e+14       5.710246213311e+02       8.033947690336e+05 
  227       1.124877624073e+14       5.688315142065e+02       7.917314753187e+05 
  228       1.135131107635e+14       5.666116266587e+02       7.790592736453e+05 
  229       1.145438602482e+14       5.643666282680e+02       7.654514015809e+05 
  230       1.155802732233e+14       5.620980956355e+02       7.509859935429e+05 
  231       1.166226207294e+14       5.598075049623e+02       7.357461936169e+05 
  232       1.176711825787e+14       5.574962244463e+02       7.198202693776e+05 
  233       1.187262474484e+14       5.551655064991e+02       7.033017267101e+05 
  234       1.197881129728e+14       5.528164797787e+02       6.862894256326e+05 
  235       1.208570858365e+14       5.504501410369e+02       6.688876971202e+05 
  236       1.219334818670e+14       5.480673467809e+02       6.512064609307e+05 
  237       1.230176261277e+14       5.456688047462e+02       6.333613444302e+05 
  238       1.241098530107e+14       5.432550651794e+02       6.154738024212e+05 
