# Matter power spectrum P(k) at redshift z=0
# for k=1.04656e-05 to 0.630317 h/Mpc,
# number of wavenumbers equal to 558
#    1:k (h/Mpc)              2:P (Mpc/h)^3        
       1.046558415325e-05       5.254015207915e+01 
       2.351801662594e-05       1.144790820235e+02 
       3.661723974182e-05       1.752576728137e+02 
       4.979944398378e-05       2.355678110395e+02 
       6.310143126752e-05       2.957995228797e+02 
       7.656095185419e-05       3.562430613553e+02 
       9.021705226981e-05       4.171456835726e+02 
       1.041104389746e-04       4.787345323408e+02 
       1.182838625604e-04       5.412285677311e+02 
       1.327825272890e-04       6.048455893268e+02 
       1.476545307857e-04       6.698072000915e+02 
       1.629513386242e-04       7.363426608853e+02 
       1.787282983224e-04       8.046921072783e+02 
       1.950451968249e-04       8.751095699845e+02 
       2.119668647644e-04       9.478658510050e+02 
       2.295638295186e-04       1.023251275026e+03 
       2.479130171051e-04       1.101578573973e+03 
       2.670985000381e-04       1.183185711695e+03 
       2.872122840706e-04       1.268438696517e+03 
       3.083551208967e-04       1.357734368552e+03 
       3.306373259346e-04       1.451503008171e+03 
       3.541795698090e-04       1.550210628015e+03 
       3.791135986821e-04       1.654360778664e+03 
       4.055828219224e-04       1.764495547005e+03 
       4.337426858838e-04       1.881195504606e+03 
       4.637607306141e-04       2.005077985494e+03 
       4.958162039871e-04       2.136793448398e+03 
       5.300990884223e-04       2.277019150263e+03 
       5.668083842817e-04       2.426449622195e+03 
       6.061494984596e-04       2.585783569074e+03 
       6.483306153751e-04       2.755706726501e+03 
       6.935579892699e-04       2.936870618574e+03 
       7.420301973202e-04       3.129867751009e+03 
       7.939315315700e-04       3.335204012735e+03 
       8.494248719064e-04       3.553270580100e+03 
       9.086445462206e-04       3.784316260988e+03 
       9.716898095448e-04       4.028424726613e+03 
       1.038619619413e-03       4.285497764906e+03 
       1.109449317999e-03       4.555247760050e+03 
       1.184149645688e-03       4.837200743082e+03 
       1.262648232381e-03       5.130709651330e+03 
       1.344833398587e-03       5.434977782232e+03 
       1.430559817925e-03       5.749049251923e+03 
       1.519655405111e-03       6.071951343457e+03 
       1.611928728761e-03       6.402632988929e+03 
       1.707176301000e-03       6.740018793675e+03 
       1.805189232913e-03       7.083041151249e+03 
       1.905758921462e-03       7.430664133494e+03 
       2.008681608447e-03       7.781900122566e+03 
       2.113761797058e-03       8.135822733250e+03 
       2.220814613954e-03       8.491574797567e+03 
       2.329667264292e-03       8.848371507132e+03 
       2.440159751086e-03       9.205501323652e+03 
       2.552145029012e-03       9.562324391445e+03 
       2.665488746166e-03       9.918269060948e+03 
       2.780068703323e-03       1.027282764228e+04 
       2.895774134413e-03       1.062555213007e+04 
       3.012504887678e-03       1.097604921966e+04 
       3.130170565898e-03       1.132397370425e+04 
       3.248689666828e-03       1.166902680071e+04 
       3.367988751431e-03       1.201094655543e+04 
       3.488001657278e-03       1.234950822013e+04 
       3.608668766946e-03       1.268451697271e+04 
       3.729936335932e-03       1.301580758227e+04 
       3.851755880954e-03       1.334323632725e+04 
       3.974083627100e-03       1.366668343552e+04 
       4.096880010775e-03       1.398604771122e+04 
       4.220109234594e-03       1.430124099416e+04 
       4.343738869922e-03       1.461219731853e+04 
       4.467739502699e-03       1.491885453578e+04 
       4.592084418280e-03       1.522117206728e+04 
       4.716749321226e-03       1.551911119566e+04 
       4.841712086279e-03       1.581260382948e+04 
       4.966952537072e-03       1.610172587981e+04 
       5.092452249445e-03       1.638639310182e+04 
       5.218194376545e-03       1.666660574445e+04 
       5.344163493219e-03       1.694247521500e+04 
       5.470345457444e-03       1.721389618620e+04 
       5.596727286835e-03       1.748091306047e+04 
       5.723297048470e-03       1.774352198030e+04 
       5.850043760500e-03       1.800122910630e+04 
       5.976957304169e-03       1.825506695200e+04 
       6.104028345073e-03       1.850454717591e+04 
       6.231248262573e-03       1.874969855025e+04 
       6.358609086470e-03       1.899043690729e+04 
       6.486103440100e-03       1.922711631970e+04 
       6.613724489140e-03       1.945948703999e+04 
       6.741465895502e-03       1.968759768774e+04 
       6.869321775750e-03       1.991154040601e+04 
       6.997286663539e-03       2.013146440967e+04 
       7.125355475668e-03       2.034747710187e+04 
       7.253523481337e-03       2.055911592797e+04 
       7.381786274290e-03       2.076674956812e+04 
       7.510139747528e-03       2.097062918729e+04 
       7.638580070340e-03       2.117058383258e+04 
       7.767103667403e-03       2.136686889309e+04 
       7.895707199758e-03       2.155875881674e+04 
       8.024387547455e-03       2.174675666696e+04 
       8.153141793718e-03       2.193129177161e+04 
       8.281967210480e-03       2.211173504992e+04 
       8.410861245143e-03       2.228875188977e+04 
       8.539821508466e-03       2.246274291328e+04 
       8.668845763453e-03       2.263229635051e+04 
       8.797931915167e-03       2.279823166801e+04 
       8.927078001372e-03       2.295991941721e+04 
       9.056282183931e-03       2.311938906646e+04 
       9.185542740897e-03       2.327380089857e+04 
       9.314858059221e-03       2.342563541878e+04 
       9.444226628044e-03       2.357403342152e+04 
       9.573647032500e-03       2.371978271810e+04 
       9.703117948001e-03       2.386142757254e+04 
       9.832638134958e-03       2.399863810646e+04 
       9.962206433899e-03       2.413463284908e+04 
       1.009182176095e-02       2.426529727968e+04 
       1.022148310368e-02       2.439412767759e+04 
       1.035118951717e-02       2.451923742679e+04 
       1.048094012051e-02       2.464173837184e+04 
       1.061073409341e-02       2.476125488954e+04 
       1.074057067312e-02       2.487623886807e+04 
       1.087044915162e-02       2.499004892877e+04 
       1.100036887287e-02       2.509981053172e+04 
       1.113032923044e-02       2.520676500839e+04 
       1.126032966512e-02       2.531071230216e+04 
       1.139036966288e-02       2.541167396897e+04 
       1.152044875280e-02       2.550895177372e+04 
       1.165056650528e-02       2.560415427793e+04 
       1.178072253033e-02       2.569642588447e+04 
       1.191091647592e-02       2.578617067138e+04 
       1.204114802657e-02       2.587341347373e+04 
       1.217141690192e-02       2.595743874792e+04 
       1.230172285546e-02       2.603898000796e+04 
       1.243206567334e-02       2.611675308273e+04 
       1.256244517328e-02       2.619297490036e+04 
       1.269286120353e-02       2.626611006110e+04 
       1.282331364189e-02       2.633634544363e+04 
       1.295380239488e-02       2.640592426272e+04 
       1.308432739688e-02       2.647024651276e+04 
       1.321488860937e-02       2.653340930917e+04 
       1.334548602025e-02       2.659537681045e+04 
       1.347611964321e-02       2.665383611505e+04 
       1.360678951706e-02       2.670955292206e+04 
       1.373749570527e-02       2.676167055977e+04 
       1.386823829542e-02       2.681273807380e+04 
       1.399901739873e-02       2.686295907824e+04 
       1.412983314967e-02       2.690925464100e+04 
       1.426068570557e-02       2.695215782025e+04 
       1.439157524627e-02       2.699517039099e+04 
       1.452250197381e-02       2.703482832973e+04 
       1.465346611215e-02       2.707138803754e+04 
       1.478446790695e-02       2.710636289781e+04 
       1.491550762530e-02       2.713959481089e+04 
       1.504658555561e-02       2.717200068242e+04 
       1.517770200738e-02       2.720068393564e+04 
       1.530885731111e-02       2.722625205093e+04 
       1.544005181817e-02       2.725094274145e+04 
       1.557128590074e-02       2.727381207206e+04 
       1.570255995172e-02       2.729590384509e+04 
       1.583387438473e-02       2.731455857901e+04 
       1.596522963406e-02       2.733134632583e+04 
       1.609662615471e-02       2.734650420615e+04 
       1.622806442238e-02       2.735957511483e+04 
       1.635954493357e-02       2.737079429764e+04 
       1.649106820557e-02       2.737944878390e+04 
       1.662263477664e-02       2.738783653960e+04 
       1.675424520605e-02       2.739329130095e+04 
       1.688590007420e-02       2.739647563477e+04 
       1.701759998282e-02       2.739859378250e+04 
       1.714934555508e-02       2.739901017530e+04 
       1.728113743576e-02       2.739778842956e+04 
       1.741297629150e-02       2.739483012166e+04 
       1.754486281096e-02       2.739104734496e+04 
       1.767679770505e-02       2.738459115703e+04 
       1.780878170721e-02       2.737577861998e+04 
       1.794081557365e-02       2.736641332944e+04 
       1.807290008363e-02       2.735544304044e+04 
       1.820503603976e-02       2.734289823815e+04 
       1.833722426830e-02       2.732843671856e+04 
       1.846946561951e-02       2.731294155654e+04 
       1.860176096798e-02       2.729561928804e+04 
       1.873411121299e-02       2.727701342477e+04 
       1.886651727890e-02       2.725717485444e+04 
       1.899898011556e-02       2.723553101316e+04 
       1.913150069869e-02       2.721267410691e+04 
       1.926408003032e-02       2.718843342863e+04 
       1.939671913926e-02       2.716376057272e+04 
       1.952941908156e-02       2.713586075731e+04 
       1.966218094098e-02       2.710763053879e+04 
       1.979500582948e-02       2.707796422758e+04 
       1.992789488780e-02       2.704714222037e+04 
       2.006084928593e-02       2.701577512809e+04 
       2.019387022373e-02       2.698229695036e+04 
       2.032695893146e-02       2.694769039938e+04 
       2.046011667041e-02       2.691148960748e+04 
       2.059334473351e-02       2.687463845000e+04 
       2.072664444597e-02       2.683713185407e+04 
       2.086001716594e-02       2.679712474539e+04 
       2.099346428521e-02       2.675709217188e+04 
       2.112698722988e-02       2.671513712701e+04 
       2.126058746114e-02       2.667256518389e+04 
       2.139426647597e-02       2.662953694674e+04 
       2.152802580795e-02       2.658418850544e+04 
       2.166186702806e-02       2.653907127023e+04 
       2.179579174549e-02       2.649179754344e+04 
       2.192980160851e-02       2.644397517997e+04 
       2.206389830533e-02       2.639528524142e+04 
       2.219808356502e-02       2.634633857811e+04 
       2.233235915846e-02       2.629562445401e+04 
       2.246672689928e-02       2.624344301364e+04 
       2.260118864485e-02       2.619097236128e+04 
       2.273574629735e-02       2.613770273705e+04 
       2.287040180477e-02       2.608346795565e+04 
       2.300515716204e-02       2.602839746757e+04 
       2.314001441216e-02       2.597248448201e+04 
       2.327497564732e-02       2.591573232645e+04 
       2.341004301013e-02       2.585824252346e+04 
       2.354521869487e-02       2.580033202372e+04 
       2.368050494869e-02       2.574078141842e+04 
       2.381590407301e-02       2.568094030779e+04 
       2.395141842484e-02       2.562021177833e+04 
       2.408705041814e-02       2.555893480343e+04 
       2.422280252532e-02       2.549690871605e+04 
       2.435867727871e-02       2.543414189914e+04 
       2.449467727207e-02       2.537069264610e+04 
       2.463080516220e-02       2.530696685627e+04 
       2.476706367057e-02       2.524184509278e+04 
       2.490345558501e-02       2.517645182864e+04 
       2.503998376145e-02       2.511044579205e+04 
       2.517665112573e-02       2.504411785532e+04 
       2.531346067543e-02       2.497654025599e+04 
       2.545041548183e-02       2.490874853677e+04 
       2.558751869188e-02       2.484039728557e+04 
       2.572477353023e-02       2.477147233242e+04 
       2.586218330139e-02       2.470202333642e+04 
       2.599975139189e-02       2.463202383861e+04 
       2.613748127253e-02       2.456151745044e+04 
       2.627537650079e-02       2.449049389577e+04 
       2.641344072316e-02       2.441911278765e+04 
       2.655167767774e-02       2.434724947942e+04 
       2.669009119674e-02       2.427466275086e+04 
       2.682868520924e-02       2.420181053038e+04 
       2.696746374393e-02       2.412841576106e+04 
       2.710643093199e-02       2.405471737022e+04 
       2.724559101007e-02       2.398057714876e+04 
       2.738494832337e-02       2.390610444539e+04 
       2.752450732885e-02       2.383103849686e+04 
       2.766427259852e-02       2.375559811134e+04 
       2.780424882288e-02       2.368009658052e+04 
       2.794444081451e-02       2.360404320435e+04 
       2.808485351168e-02       2.352747503457e+04 
       2.822549198229e-02       2.345086418530e+04 
       2.836636142773e-02       2.337357377157e+04 
       2.850746718710e-02       2.329633217155e+04 
       2.864881474140e-02       2.321879832930e+04 
       2.879040971806e-02       2.314070280611e+04 
       2.893225789547e-02       2.306234973359e+04 
       2.907436520786e-02       2.298394975934e+04 
       2.921673775023e-02       2.290514142512e+04 
       2.935938178353e-02       2.282598559136e+04 
       2.950230374010e-02       2.274656304894e+04 
       2.964551022920e-02       2.266704970509e+04 
       2.978900804291e-02       2.258732979366e+04 
       2.993280416219e-02       2.250734406863e+04 
       3.007690576315e-02       2.242712111413e+04 
       3.022132022372e-02       2.234681716813e+04 
       3.036605513041e-02       2.226652026835e+04 
       3.051111828558e-02       2.218540330793e+04 
       3.065651771478e-02       2.210449276136e+04 
       3.080226167461e-02       2.202336635079e+04 
       3.094835866079e-02       2.194211437454e+04 
       3.109481741666e-02       2.186069964637e+04 
       3.124164694198e-02       2.177911301661e+04 
       3.138885650223e-02       2.169764457195e+04 
       3.153645563820e-02       2.161587627408e+04 
       3.168445417612e-02       2.153370594367e+04 
       3.183286223817e-02       2.145188011274e+04 
       3.198169025359e-02       2.136963203361e+04 
       3.213094897016e-02       2.128725698474e+04 
       3.228064946634e-02       2.120501999312e+04 
       3.243080316391e-02       2.112255146394e+04 
       3.258142184128e-02       2.103979982310e+04 
       3.273251764740e-02       2.095726772157e+04 
       3.288410311637e-02       2.087448163379e+04 
       3.303619118272e-02       2.079185045353e+04 
       3.318879519757e-02       2.070893973551e+04 
       3.334192894546e-02       2.062592161973e+04 
       3.349560666214e-02       2.054304948868e+04 
       3.364984305323e-02       2.046008706864e+04 
       3.380465331385e-02       2.037708755885e+04 
       3.396005314932e-02       2.029389012692e+04 
       3.411605879687e-02       2.021070518685e+04 
       3.427268704859e-02       2.012777163068e+04 
       3.442995527561e-02       2.004451333477e+04 
       3.458788145358e-02       1.996119110947e+04 
       3.474648418957e-02       1.987796432054e+04 
       3.490578275046e-02       1.979468122038e+04 
       3.506579709297e-02       1.971162853446e+04 
       3.522654789537e-02       1.962829990898e+04 
       3.538805659104e-02       1.954500446295e+04 
       3.555034540399e-02       1.946170919392e+04 
       3.571343738648e-02       1.937837152361e+04 
       3.587735645889e-02       1.929488992033e+04 
       3.604212745204e-02       1.921158680837e+04 
       3.620777615198e-02       1.912839683257e+04 
       3.637432934776e-02       1.904512230220e+04 
       3.654181488198e-02       1.896168015281e+04 
       3.671026170475e-02       1.887850681114e+04 
       3.687969993096e-02       1.879505864380e+04 
       3.705016090135e-02       1.871173628188e+04 
       3.722167724767e-02       1.862842095151e+04 
       3.739428296207e-02       1.854505357497e+04 
       3.756801347128e-02       1.846180611192e+04 
       3.774290571584e-02       1.837857986218e+04 
       3.791899823486e-02       1.829527604522e+04 
       3.809633125674e-02       1.821191685191e+04 
       3.827494679635e-02       1.812852256004e+04 
       3.845488875932e-02       1.804527685557e+04 
       3.863620305387e-02       1.796185141371e+04 
       3.881893771114e-02       1.787868457543e+04 
       3.900314301440e-02       1.779519813640e+04 
       3.918887163838e-02       1.771181458256e+04 
       3.937617879932e-02       1.762855000385e+04 
       3.956512241687e-02       1.754506967273e+04 
       3.975576328904e-02       1.746172561697e+04 
       3.994816528138e-02       1.737806808507e+04 
       4.014239553173e-02       1.729475392341e+04 
       4.033852467232e-02       1.721125063029e+04 
       4.053662707070e-02       1.712746415246e+04 
       4.073678109166e-02       1.704389840445e+04 
       4.093906938227e-02       1.696031205587e+04 
       4.114357918243e-02       1.687655542656e+04 
       4.135040266386e-02       1.679262012683e+04 
       4.155963730048e-02       1.670887581405e+04 
       4.177138627387e-02       1.662474134218e+04 
       4.198575891770e-02       1.654060569196e+04 
       4.220287120571e-02       1.645648281527e+04 
       4.242284628843e-02       1.637206003170e+04 
       4.264581508441e-02       1.628760877192e+04 
       4.287191693276e-02       1.620301170977e+04 
       4.310130031468e-02       1.611822538921e+04 
       4.333412365267e-02       1.603333738758e+04 
       4.357055619768e-02       1.594825218758e+04 
       4.381077901578e-02       1.586280114860e+04 
       4.405498608786e-02       1.577734822550e+04 
       4.430338553808e-02       1.569148869128e+04 
       4.455620100908e-02       1.560550797227e+04 
       4.481367320535e-02       1.551914518771e+04 
       4.507606162941e-02       1.543254137535e+04 
       4.534364653992e-02       1.534572697718e+04 
       4.561673116596e-02       1.525842200015e+04 
       4.589564421792e-02       1.517066201754e+04 
       4.618074274281e-02       1.508258380502e+04 
       4.647241538103e-02       1.499401621399e+04 
       4.677108609250e-02       1.490490197068e+04 
       4.707721843365e-02       1.481533760475e+04 
       4.739132048314e-02       1.472527157753e+04 
       4.771395053469e-02       1.463473336891e+04 
       4.804572370035e-02       1.454341292627e+04 
       4.838731959887e-02       1.445135851306e+04 
       4.873949134284e-02       1.435860974430e+04 
       4.910307608671e-02       1.426463062564e+04 
       4.947900745951e-02       1.416990101090e+04 
       4.986833028287e-02       1.407480805959e+04 
       5.027221807338e-02       1.397816369716e+04 
       5.069199395222e-02       1.387991216923e+04 
       5.112915574355e-02       1.378118287102e+04 
       5.158540624474e-02       1.368050170311e+04 
       5.206268990896e-02       1.357806466058e+04 
       5.256323750712e-02       1.347429006547e+04 
       5.308962074954e-02       1.336809965941e+04 
       5.364481936342e-02       1.326017283499e+04 
       5.423230375338e-02       1.314899849016e+04 
       5.485613711680e-02       1.303535055387e+04 
       5.552110170424e-02       1.291902082045e+04 
       5.623285468670e-02       1.279836340060e+04 
       5.699811952417e-02       1.267349094628e+04 
       5.782491818766e-02       1.254306960810e+04 
       5.872284677616e-02       1.240650360787e+04 
       5.970338948673e-02       1.226231840307e+04 
       6.078024897490e-02       1.210892384313e+04 
       6.196963723152e-02       1.194391195468e+04 
       6.329040924938e-02       1.176380471346e+04 
