# total [l(l+1)/2pi] C_l's (units: [microK]^2)
# for l=2 to 2500, i.e. number of multipoles equal to 2499
#
# -> if you don't want to see such a header, set 'headers' to 'no' in input file
# -> for CMB lensing (d), these are C_l^dd for the deflection field.
#    Remember the conversion factors:
#    C_l^dd (deflection) = l(l+1) C_l^phi-phi
#    C_l^gg (shear/convergence) = 1/4 (l(l+1))^2 C_l^phi-phi
#
# 1:l     2:TT                     3:dd                     4:dT                 
    2       9.946121937917e+02       4.717242895491e-08       3.163567103583e-03 
    3       9.387076398284e+02       5.839288130775e-08       3.183664590400e-03 
    4       8.849990994633e+02       6.797740535620e-08       3.125812853265e-03 
    5       8.439525643385e+02       7.639273927425e-08       3.036770391213e-03 
    6       8.150068709345e+02       8.379901435805e-08       2.934252881651e-03 
    7       7.958098407021e+02       9.037858761689e-08       2.825995639372e-03 
    8       7.840343983441e+02       9.624937340743e-08       2.716690074275e-03 
    9       7.783847100164e+02       1.014876857838e-07       2.611155204558e-03 
   10       7.771026098371e+02       1.061622757364e-07       2.512661066392e-03 
   11       7.792317328900e+02       1.076890844597e-07       2.430141045924e-03 
   12       7.841781916947e+02       1.113506780954e-07       2.335161322769e-03 
   13       7.909830621119e+02       1.146378796417e-07       2.252358882077e-03 
   14       7.993820426285e+02       1.175935126403e-07       2.172488391239e-03 
   15       8.093119880817e+02       1.202502483683e-07       2.098913370172e-03 
   16       8.203920573613e+02       1.226388697427e-07       2.031387016253e-03 
   17       8.319580383848e+02       1.247854519108e-07       1.966742140799e-03 
   18       8.443821959574e+02       1.266641199481e-07       1.903404398798e-03 
   19       8.577796662475e+02       1.284389286799e-07       1.843356455049e-03 
   20       8.716779012773e+02       1.299751860677e-07       1.785364002051e-03 
   21       8.860555478651e+02       1.313582570025e-07       1.730436449648e-03 
   22       9.008274906248e+02       1.325639634615e-07       1.677921074063e-03 
   23       9.160252382309e+02       1.336608092187e-07       1.628064707142e-03 
   24       9.315654484559e+02       1.346019784239e-07       1.579818429928e-03 
   25       9.474172911131e+02       1.354408900248e-07       1.533924140508e-03 
   26       9.634783863199e+02       1.361567403826e-07       1.490613554319e-03 
   27       9.798132379893e+02       1.367761044372e-07       1.450075348608e-03 
   28       9.964646415239e+02       1.372638856282e-07       1.411648084454e-03 
   29       1.013467863520e+03       1.376916926823e-07       1.375517949792e-03 
   30       1.030761632295e+03       1.380794745497e-07       1.341155809650e-03 
   31       1.048212134821e+03       1.383489275972e-07       1.307151512984e-03 
   32       1.065846408092e+03       1.385440370599e-07       1.273762698269e-03 
   33       1.083688300626e+03       1.386928098460e-07       1.241352654724e-03 
   34       1.101716927342e+03       1.387599650640e-07       1.209862874180e-03 
   35       1.119963242618e+03       1.387768212480e-07       1.179649432284e-03 
   36       1.138435629047e+03       1.387500556954e-07       1.150862649694e-03 
   37       1.157109435151e+03       1.386413913089e-07       1.123338295949e-03 
   38       1.175999323403e+03       1.384885298327e-07       1.097314002488e-03 
   39       1.195102476171e+03       1.383265976446e-07       1.072908721435e-03 
   40       1.214373736867e+03       1.381426912151e-07       1.049857370811e-03 
   41       1.233753813601e+03       1.378908296502e-07       1.027659468600e-03 
   42       1.253275243962e+03       1.375932243806e-07       1.006306726234e-03 
   43       1.272983705446e+03       1.372748352605e-07       9.857770185016e-04 
   44       1.292906481331e+03       1.369284903187e-07       9.657991986810e-04 
   45       1.313054331028e+03       1.365269292586e-07       9.459950421753e-04 
   46       1.333432623302e+03       1.360939783955e-07       9.264895729184e-04 
   47       1.354030026632e+03       1.356574366613e-07       9.074964513493e-04 
   48       1.374813080996e+03       1.352251775677e-07       8.891390580637e-04 
   49       1.395724363849e+03       1.347790939273e-07       8.714326234187e-04 
   50       1.416706553073e+03       1.342869152091e-07       8.543255782145e-04 
   51       1.437786570880e+03       1.337625083295e-07       8.378894763613e-04 
   52       1.459011109606e+03       1.332257593023e-07       8.221726686083e-04 
   53       1.480422130227e+03       1.326835793707e-07       8.071341285157e-04 
   54       1.502056247023e+03       1.321263405998e-07       7.926299648477e-04 
   55       1.523941775306e+03       1.315361570380e-07       7.784759499662e-04 
   56       1.546090425438e+03       1.309264252195e-07       7.646964447168e-04 
   57       1.568502467616e+03       1.303145339262e-07       7.513422932587e-04 
   58       1.591168197013e+03       1.297093288402e-07       7.384154869491e-04 
   59       1.614067227384e+03       1.291089178316e-07       7.258621763143e-04 
   60       1.637167784684e+03       1.284982757935e-07       7.135653850385e-04 
   61       1.660438404508e+03       1.278572529475e-07       7.013939776449e-04 
   62       1.683887690667e+03       1.271952481754e-07       6.893868637710e-04 
   63       1.707532267966e+03       1.265271776308e-07       6.776168796747e-04 
   64       1.731384859240e+03       1.258630653519e-07       6.661366569949e-04 
   65       1.755453972529e+03       1.252068316664e-07       6.549755801612e-04 
   66       1.779743588251e+03       1.245549797139e-07       6.441366208852e-04 
   67       1.804252846384e+03       1.238951768444e-07       6.335930497331e-04 
   68       1.828979506647e+03       1.232123831546e-07       6.233084929134e-04 
   69       1.853931842467e+03       1.225138350005e-07       6.133121458910e-04 
   70       1.879118606148e+03       1.218112664998e-07       6.036401350245e-04 
   71       1.904545256649e+03       1.211134826767e-07       5.943121188522e-04 
   72       1.930213743260e+03       1.204256821544e-07       5.853292908935e-04 
   73       1.956122289274e+03       1.197487281124e-07       5.766723121055e-04 
   74       1.982265175659e+03       1.190783660160e-07       5.682991729969e-04 
   75       2.008632524729e+03       1.184043866267e-07       5.601429853960e-04 
   76       2.035214876102e+03       1.177151511598e-07       5.521346843811e-04 
   77       2.062018356121e+03       1.170152068906e-07       5.442835611297e-04 
   78       2.089051894478e+03       1.163123748842e-07       5.366144981698e-04 
   79       2.116322561185e+03       1.156125076767e-07       5.291439847741e-04 
   80       2.143835448517e+03       1.149190943204e-07       5.218791741311e-04 
   81       2.171593552954e+03       1.142328385522e-07       5.148169103500e-04 
   82       2.199597657123e+03       1.135512093889e-07       5.079427252982e-04 
   83       2.227846211743e+03       1.128679634567e-07       5.012298052714e-04 
   84       2.256337036236e+03       1.121761511884e-07       4.946500174946e-04 
   85       2.285073003098e+03       1.114794731776e-07       4.882125612157e-04 
   86       2.314057083812e+03       1.107837080220e-07       4.819329322834e-04 
   87       2.343290527750e+03       1.100932939995e-07       4.758211415024e-04 
   88       2.372772774685e+03       1.094110881331e-07       4.698811689149e-04 
   89       2.402501367300e+03       1.087381104337e-07       4.641104023430e-04 
   90       2.432471863694e+03       1.080732729725e-07       4.584990601923e-04 
   91       2.462677749893e+03       1.074130934347e-07       4.530295985166e-04 
   92       2.493110352353e+03       1.067513928087e-07       4.476761023436e-04 
   93       2.523761430974e+03       1.060818439039e-07       4.424130465510e-04 
   94       2.554631594257e+03       1.054072345095e-07       4.372452465678e-04 
   95       2.585722993907e+03       1.047323677788e-07       4.321834836233e-04 
   96       2.617036707094e+03       1.040613098517e-07       4.272354320816e-04 
   97       2.648572685751e+03       1.033972597327e-07       4.224053751041e-04 
   98       2.680329705880e+03       1.027424117804e-07       4.176939128397e-04 
   99       2.712305316852e+03       1.020978106494e-07       4.130976631436e-04 
  100       2.744495790714e+03       1.014631985268e-07       4.086089548249e-04 
  101       2.776896071488e+03       1.008368545043e-07       4.042155134216e-04 
  102       2.809499724477e+03       1.002154259282e-07       3.999001395049e-04 
  103       2.842298885564e+03       9.959375156844e-08       3.956403795114e-04 
  104       2.875285945307e+03       9.896677594821e-08       3.914154614048e-04 
  105       2.908458969481e+03       9.833630638793e-08       3.872294537351e-04 
  106       2.941816919669e+03       9.770571704391e-08       3.830921570365e-04 
  107       2.975357952605e+03       9.707793822957e-08       3.790121264276e-04 
  108       3.009079388543e+03       9.645538551413e-08       3.749965540107e-04 
  109       3.042977679626e+03       9.583988520450e-08       3.710511483893e-04 
  110       3.077048378250e+03       9.523259614048e-08       3.671800113011e-04 
  111       3.111286105429e+03       9.463392773375e-08       3.633855113694e-04 
  112       3.145684519165e+03       9.404345418099e-08       3.596681549699e-04 
  113       3.180236282813e+03       9.345982478135e-08       3.560264542154e-04 
  114       3.214933033449e+03       9.288067028873e-08       3.524567920570e-04 
  115       3.249765350232e+03       9.230250522919e-08       3.489532845016e-04 
  116       3.284724045271e+03       9.172200879382e-08       3.455100919087e-04 
  117       3.319804281891e+03       9.114045163484e-08       3.421291408072e-04 
  118       3.355001899993e+03       9.056014445323e-08       3.388135426950e-04 
  119       3.390312118643e+03       8.998310922700e-08       3.355651830471e-04 
  120       3.425729516127e+03       8.941103877629e-08       3.323846363905e-04 
  121       3.461248010015e+03       8.884525448622e-08       3.292710796124e-04 
  122       3.496860837217e+03       8.828666215527e-08       3.262222035015e-04 
  123       3.532560534043e+03       8.773570593781e-08       3.232341225236e-04 
  124       3.568338916265e+03       8.719232034848e-08       3.203012828296e-04 
  125       3.604187059177e+03       8.665588029700e-08       3.174163684974e-04 
  126       3.640095277650e+03       8.612514912128e-08       3.145702060073e-04 
  127       3.676053106197e+03       8.559822458723e-08       3.117516669509e-04 
  128       3.712049279029e+03       8.507248282323e-08       3.089475689725e-04 
  129       3.748072888931e+03       8.454550146140e-08       3.061463728908e-04 
  130       3.784117049963e+03       8.401818856880e-08       3.033501832699e-04 
  131       3.820175600750e+03       8.349222483176e-08       3.005645285184e-04 
  132       3.856241950290e+03       8.296912028312e-08       2.977947128751e-04 
  133       3.892309066452e+03       8.245019220345e-08       2.950457925675e-04 
  134       3.928369464471e+03       8.193654211000e-08       2.923225514623e-04 
  135       3.964415195440e+03       8.142903181940e-08       2.896294762088e-04 
  136       4.000437834810e+03       8.092825856965e-08       2.869707308753e-04 
  137       4.036428470879e+03       8.043452918727e-08       2.843501310768e-04 
  138       4.072377693290e+03       7.994783328535e-08       2.817711175970e-04 
  139       4.108275581526e+03       7.946781547816e-08       2.792367295014e-04 
  140       4.144111693404e+03       7.899374659833e-08       2.767495767439e-04 
  141       4.179875053569e+03       7.852449390198e-08       2.743118122653e-04 
  142       4.215554141992e+03       7.805849024791e-08       2.719251035851e-04 
  143       4.251136882461e+03       7.759370223644e-08       2.695906038852e-04 
  144       4.286611575802e+03       7.712829868195e-08       2.673091100853e-04 
  145       4.321969827517e+03       7.666287773989e-08       2.650816267656e-04 
  146       4.357203888242e+03       7.619861336536e-08       2.629088295745e-04 
  147       4.392305728922e+03       7.573658065312e-08       2.607908577397e-04 
  148       4.427267034733e+03       7.527774410275e-08       2.587272859372e-04 
  149       4.462079199008e+03       7.482294544718e-08       2.567170956980e-04 
  150       4.496733317160e+03       7.437289103854e-08       2.547586463519e-04 
  151       4.531220180605e+03       7.392813878503e-08       2.528496455080e-04 
  152       4.565530270690e+03       7.348908463294e-08       2.509871190739e-04 
  153       4.599653752615e+03       7.305594858745e-08       2.491673808108e-04 
  154       4.633580469356e+03       7.262876026621e-08       2.473860014268e-04 
  155       4.667299935593e+03       7.220734397944e-08       2.456377772072e-04 
  156       4.700801331629e+03       7.179130333063e-08       2.439166981821e-04 
  157       4.734073497322e+03       7.138000533139e-08       2.422159158316e-04 
  158       4.767104926000e+03       7.097256402469e-08       2.405277103278e-04 
  159       4.799883758393e+03       7.056782360996e-08       2.388434573148e-04 
  160       4.832397776552e+03       7.016434106428e-08       2.371535942251e-04 
  161       4.864635234609e+03       6.976084272835e-08       2.354498469375e-04 
  162       4.896587446350e+03       6.935772421766e-08       2.337323156358e-04 
  163       4.928246415920e+03       6.895578009659e-08       2.320032630605e-04 
  164       4.959604019363e+03       6.855574644204e-08       2.302649327217e-04 
  165       4.990652002400e+03       6.815829460625e-08       2.285195448802e-04 
  166       5.021381978200e+03       6.776402477164e-08       2.267692924530e-04 
  167       5.051785425157e+03       6.737345929512e-08       2.250163368427e-04 
  168       5.081853684662e+03       6.698703583923e-08       2.232628036898e-04 
  169       5.111577958880e+03       6.660510028741e-08       2.215107785500e-04 
  170       5.140949308522e+03       6.622789944094e-08       2.197623024943e-04 
  171       5.169958650620e+03       6.585557349478e-08       2.180193676327e-04 
  172       5.198596756306e+03       6.548814828976e-08       2.162839125631e-04 
  173       5.226854248577e+03       6.512552733848e-08       2.145578177421e-04 
  174       5.254721600079e+03       6.476748362235e-08       2.128429007808e-04 
  175       5.282189130876e+03       6.441365115708e-08       2.111409116643e-04 
  176       5.309247006227e+03       6.406351632397e-08       2.094535278939e-04 
  177       5.335885234356e+03       6.371640896459e-08       2.077823495546e-04 
  178       5.362093664235e+03       6.337149323589e-08       2.061288943053e-04 
  179       5.387861983348e+03       6.302775822349e-08       2.044945922928e-04 
  180       5.413180364427e+03       6.268432605017e-08       2.028807056311e-04 
  181       5.438041467767e+03       6.234145201809e-08       2.012880870105e-04 
  182       5.462438594163e+03       6.199966385693e-08       1.997173824504e-04 
  183       5.486365050428e+03       6.165945463183e-08       1.981690979487e-04 
  184       5.509814149554e+03       6.132127944350e-08       1.966435931638e-04 
  185       5.532779210878e+03       6.098555202986e-08       1.951410750106e-04 
  186       5.555253560246e+03       6.065264126823e-08       1.936615911717e-04 
  187       5.577230530180e+03       6.032286757669e-08       1.922050235232e-04 
  188       5.598703460040e+03       5.999649921382e-08       1.907710814742e-04 
  189       5.619665696189e+03       5.967374847544e-08       1.893592952217e-04 
  190       5.640110592160e+03       5.935476778737e-08       1.879690089199e-04 
  191       5.660031508818e+03       5.903964569311e-08       1.865993737633e-04 
  192       5.679421814526e+03       5.872840273526e-08       1.852493409854e-04 
  193       5.698274885310e+03       5.842098722963e-08       1.839176547712e-04 
  194       5.716584105023e+03       5.811727093084e-08       1.826028450843e-04 
  195       5.734342865509e+03       5.781704458843e-08       1.813032204090e-04 
  196       5.751544566770e+03       5.752001339231e-08       1.800168604066e-04 
  197       5.768182617129e+03       5.722579230630e-08       1.787416084860e-04 
  198       5.784250433394e+03       5.693390128897e-08       1.774750642891e-04 
  199       5.799741441025e+03       5.664376040027e-08       1.762145760911e-04 
  200       5.814649074297e+03       5.635468479323e-08       1.749572331147e-04 
  201       5.828967228813e+03       5.606608773132e-08       1.737005320300e-04 
  202       5.842691654724e+03       5.577813307455e-08       1.724444726216e-04 
  203       5.855818663461e+03       5.549116544873e-08       1.711896709790e-04 
  204       5.868344685826e+03       5.520550852973e-08       1.699367031153e-04 
  205       5.880266273491e+03       5.492146328170e-08       1.686861029516e-04 
  206       5.891580100501e+03       5.463930614832e-08       1.674383602748e-04 
  207       5.902282964775e+03       5.435928719661e-08       1.661939186700e-04 
  208       5.912371789608e+03       5.408162821285e-08       1.649531734263e-04 
  209       5.921843625173e+03       5.380652075006e-08       1.637164694164e-04 
  210       5.930695650022e+03       5.353412412666e-08       1.624840989507e-04 
  211       5.938925172587e+03       5.326456337577e-08       1.612562996044e-04 
  212       5.946529632685e+03       5.299792714466e-08       1.600332520192e-04 
  213       5.953506603014e+03       5.273426554393e-08       1.588150776786e-04 
  214       5.959853790659e+03       5.247358794597e-08       1.576018366567e-04 
  215       5.965569038593e+03       5.221586073209e-08       1.563935253419e-04 
  216       5.970650327176e+03       5.196100498799e-08       1.551900741331e-04 
  217       5.975095775661e+03       5.170889414704e-08       1.539913451111e-04 
  218       5.978903643692e+03       5.145935158083e-08       1.527971296828e-04 
  219       5.982072332806e+03       5.121214813667e-08       1.516071462001e-04 
  220       5.984600387936e+03       5.096699962139e-08       1.504210375521e-04 
  221       5.986486498914e+03       5.072356423111e-08       1.492383687315e-04 
  222       5.987729501968e+03       5.048143992637e-08       1.480586243746e-04 
  223       5.988328381227e+03       5.024016175232e-08       1.468812062755e-04 
  224       5.988282449213e+03       4.999933674279e-08       1.457056593458e-04 
  225       5.987591898096e+03       4.975907379795e-08       1.445323790240e-04 
  226       5.986257286791e+03       4.951960337424e-08       1.433619669691e-04 
  227       5.984279367073e+03       4.928114378118e-08       1.421950076958e-04 
  228       5.981659085502e+03       4.904390025604e-08       1.410320676200e-04 
  229       5.978397585352e+03       4.880806401639e-08       1.398736940908e-04 
  230       5.974496208540e+03       4.857381129019e-08       1.387204144125e-04 
  231       5.969956497551e+03       4.834130232332e-08       1.375727348536e-04 
  232       5.964780197370e+03       4.811068036429e-08       1.364311396453e-04 
  233       5.958969257404e+03       4.788207062594e-08       1.352960899680e-04 
  234       5.952525833415e+03       4.765557922395e-08       1.341680229260e-04 
  235       5.945452289445e+03       4.743129209196e-08       1.330473505109e-04 
  236       5.937751199746e+03       4.720927387304e-08       1.319344585534e-04 
  237       5.929425350704e+03       4.698956678736e-08       1.308297056635e-04 
  238       5.920477742771e+03       4.677218947589e-08       1.297334221590e-04 
