# dimensionless total [l(l+1)/2pi] C_l's
# for l=2 to 3000, i.e. number of multipoles equal to 2999
#
# -> if you prefer output in CAMB/HealPix/LensPix units/order, set 'format' to 'camb' in input file
# -> if you don't want to see such a header, set 'headers' to 'no' in input file
# -> for CMB lensing (phi), these are C_l^phi-phi for the lensing potential.
#    Remember the conversion factors:
#    C_l^dd (deflection) = l(l+1) C_l^phi-phi
#    C_l^gg (shear/convergence) = 1/4 (l(l+1))^2 C_l^phi-phi
#
# 1:l     2:TT                     3:EE                     4:TE                     5:BB                     6:phiphi                 7:TPhi                   8:Ephi               
    2       1.495019851026e-10       7.296707787407e-15       4.813764287800e-13       0.000000000000e+00       8.734230077573e-09       4.856521998425e-10      -2.512507530060e-12 
    3       1.409153483645e-10       1.236168004516e-14       6.062668209089e-13       0.000000000000e+00       5.421480529183e-09       3.463836000783e-10      -2.209104706262e-12 
    4       1.324534900398e-10       1.443334756036e-14       6.271427823411e-13       0.000000000000e+00       3.775069528853e-09       2.635878405128e-10      -1.762188790177e-12 
    5       1.257481350563e-10       1.334813129118e-14       5.873186803629e-13       0.000000000000e+00       2.817197782639e-09       2.091075537875e-10      -1.308038328572e-12 
    6       1.208066702980e-10       1.029966685022e-14       5.168470627063e-13       0.000000000000e+00       2.198638086797e-09       1.707229508692e-10      -8.937896395571e-13 
    7       1.173342200030e-10       6.826279864745e-15       4.360962170508e-13       0.000000000000e+00       1.772745241364e-09       1.424068510987e-10      -5.436971389698e-13 
    8       1.150105602375e-10       4.033745442184e-15       3.573402603739e-13       0.000000000000e+00       1.465256725276e-09       1.207847588257e-10      -2.685298079232e-13 
    9       1.135915082009e-10       2.331903420077e-15       2.878446109982e-13       0.000000000000e+00       1.234304887743e-09       1.038183175923e-10      -6.990918757089e-14 
   10       1.128625412721e-10       1.569140882035e-15       2.316651964520e-13       0.000000000000e+00       1.055338724493e-09       9.024281133592e-11       5.749325803403e-14 
   11       1.126832445494e-10       1.344015971181e-15       1.905081175780e-13       0.000000000000e+00       8.886850302185e-10       7.949327724863e-11       1.232678655381e-13 
   12       1.129454719477e-10       1.286591809776e-15       1.640646677019e-13       0.000000000000e+00       7.765240177285e-10       7.027204900431e-11       1.420471187029e-13 
   13       1.135295207016e-10       1.199116244144e-15       1.505803741088e-13       0.000000000000e+00       6.844530934634e-10       6.273325728227e-11       1.276081278100e-13 
   14       1.143366985579e-10       1.053488798458e-15       1.474745835041e-13       0.000000000000e+00       6.078479732015e-10       5.619388702346e-11       9.269400149521e-14 
   15       1.153734058716e-10       9.095439080137e-16       1.517338046492e-13       0.000000000000e+00       5.433670567141e-10       5.072984482917e-11       4.954835535421e-14 
   16       1.166007497233e-10       8.286228063208e-16       1.603694193800e-13       0.000000000000e+00       4.885433208378e-10       4.609996264908e-11       7.262220401013e-15 
   17       1.179359616092e-10       8.280633145133e-16       1.708742941684e-13       0.000000000000e+00       4.415135307978e-10       4.210500324201e-11      -2.784166842542e-14 
   18       1.193830994628e-10       8.805777880336e-16       1.813525590768e-13       0.000000000000e+00       4.006931884124e-10       3.855886110074e-11      -5.224046483973e-14 
   19       1.209498756427e-10       9.535057273606e-16       1.908582986832e-13       0.000000000000e+00       3.654359545146e-10       3.543079205057e-11      -6.504178234271e-14 
   20       1.225801983778e-10       1.013307313470e-15       1.986929389786e-13       0.000000000000e+00       3.343821862083e-10       3.266625644387e-11      -6.704745639702e-14 
   21       1.242862756845e-10       1.062944713395e-15       2.048904741498e-13       0.000000000000e+00       3.070444651369e-10       3.022038652549e-11      -6.038151234228e-14 
   22       1.260681654617e-10       1.120589208492e-15       2.098390431859e-13       0.000000000000e+00       2.827694512578e-10       2.801154523525e-11      -4.838620283081e-14 
   23       1.279146201308e-10       1.205603284712e-15       2.140383250631e-13       0.000000000000e+00       2.612236567023e-10       2.600919240806e-11      -3.402789328875e-14 
   24       1.297929559565e-10       1.336516397159e-15       2.180873457172e-13       0.000000000000e+00       2.419091628200e-10       2.418056762839e-11      -2.043139562176e-14 
   25       1.317205469373e-10       1.513690870652e-15       2.224395317973e-13       0.000000000000e+00       2.245990745451e-10       2.253530797384e-11      -9.433147736608e-15 
   26       1.337104795149e-10       1.730082501950e-15       2.274678157488e-13       0.000000000000e+00       2.089804183723e-10       2.107582733497e-11      -2.352530192406e-15 
   27       1.357436298854e-10       1.979324617275e-15       2.332090341153e-13       0.000000000000e+00       1.948659553547e-10       1.976885174321e-11       6.274478196712e-16 
   28       1.377838065338e-10       2.255076224602e-15       2.395209822893e-13       0.000000000000e+00       1.820124179216e-10       1.856316830963e-11      -1.010954488280e-16 
   29       1.398407308135e-10       2.556840338414e-15       2.461016690097e-13       0.000000000000e+00       1.703542462813e-10       1.745461200625e-11      -3.748350035554e-15 
   30       1.419288306655e-10       2.885815056424e-15       2.525029278445e-13       0.000000000000e+00       1.597663447103e-10       1.644501809490e-11      -9.114367811901e-15 
   31       1.440521566715e-10       3.242582269315e-15       2.581971433312e-13       0.000000000000e+00       1.500328477959e-10       1.552682398113e-11      -1.478616520969e-14 
   32       1.462136263612e-10       3.625045957743e-15       2.628060434030e-13       0.000000000000e+00       1.411035684783e-10       1.469039170543e-11      -1.988950623841e-14 
   33       1.484065130715e-10       4.029621644303e-15       2.659467569038e-13       0.000000000000e+00       1.329154409059e-10       1.391748955740e-11      -2.359147876314e-14 
   34       1.506179013893e-10       4.453202591207e-15       2.672515757835e-13       0.000000000000e+00       1.253539699034e-10       1.318596868093e-11      -2.512489881593e-14 
   35       1.528543573914e-10       4.898390803087e-15       2.666584403653e-13       0.000000000000e+00       1.183805126565e-10       1.249636858614e-11      -2.458483923998e-14 
   36       1.551235821118e-10       5.370162507780e-15       2.642245220062e-13       0.000000000000e+00       1.119391810473e-10       1.185375369085e-11      -2.242137886356e-14 
   37       1.574278985566e-10       5.873692086358e-15       2.600477418342e-13       0.000000000000e+00       1.059462078372e-10       1.126031058967e-11      -1.919036135704e-14 
   38       1.597677971272e-10       6.411349854099e-15       2.542479497773e-13       0.000000000000e+00       1.003861454074e-10       1.071507416719e-11      -1.537708310052e-14 
   39       1.621383303666e-10       6.984759186722e-15       2.469849262043e-13       0.000000000000e+00       9.524138447812e-11       1.021356858783e-11      -1.152962880828e-14 
   40       1.645272759766e-10       7.595602534238e-15       2.384672777988e-13       0.000000000000e+00       9.046289069794e-11       9.747469335488e-12      -8.315635161906e-15 
   41       1.669207591956e-10       8.245288828285e-15       2.288931896470e-13       0.000000000000e+00       8.598729585715e-11       9.307269820177e-12      -6.354418434427e-15 
   42       1.693239877596e-10       8.933821783104e-15       2.182422888527e-13       0.000000000000e+00       8.180145318032e-11       8.892097286916e-12      -5.629826664997e-15 
   43       1.717460999829e-10       9.660565782870e-15       2.064210640179e-13       0.000000000000e+00       7.789428272766e-11       8.502551736906e-12      -5.898718228824e-15 
   44       1.741941773213e-10       1.042452717975e-14       1.933179966701e-13       0.000000000000e+00       7.423739967832e-11       8.137880285702e-12      -6.845185907121e-15 
   45       1.766729056097e-10       1.122469860025e-14       1.788083668119e-13       0.000000000000e+00       7.079525952441e-11       7.796432854914e-12      -8.125189887795e-15 
   46       1.791840499116e-10       1.206126509422e-14       1.627734371503e-13       0.000000000000e+00       6.756245718947e-11       7.477464500565e-12      -9.527362038931e-15 
   47       1.817263809667e-10       1.293472213600e-14       1.450847994008e-13       0.000000000000e+00       6.453523523970e-11       7.179674992174e-12      -1.085234024443e-14 
   48       1.842954832920e-10       1.384554084967e-14       1.255978502855e-13       0.000000000000e+00       6.170023338943e-11       6.900603434311e-12      -1.186586530334e-14 
   49       1.868834909600e-10       1.479416764905e-14       1.041508467906e-13       0.000000000000e+00       5.903377435291e-11       6.636545414106e-12      -1.229695495144e-14 
   50       1.894823069412e-10       1.578098178752e-14       8.060901376267e-14       0.000000000000e+00       5.650899671984e-11       6.383627219471e-12      -1.192444427156e-14 
   51       1.920949043179e-10       1.680615525845e-14       5.501317293258e-14       0.000000000000e+00       5.412119292603e-11       6.141564461385e-12      -1.086853612557e-14 
   52       1.947266359336e-10       1.786975424408e-14       2.746982451398e-14       0.000000000000e+00       5.186811453956e-11       5.910780471531e-12      -9.375232475862e-15 
   53       1.973819210266e-10       1.897177559677e-14      -1.889231587750e-15       0.000000000000e+00       4.974238965877e-11       5.691310672616e-12      -7.737161826703e-15 
   54       2.000641449407e-10       2.011214449832e-14      -3.290572040835e-14       0.000000000000e+00       4.773117803581e-11       5.482774176261e-12      -6.295911664146e-15 
   55       2.027756957845e-10       2.129075238188e-14      -6.543284751297e-14       0.000000000000e+00       4.582008985949e-11       5.284574740064e-12      -5.361894875138e-15 
   56       2.055183148296e-10       2.250758709183e-14      -9.946290004575e-14       0.000000000000e+00       4.400687219427e-11       5.096627165629e-12      -4.945294009934e-15 
   57       2.082926574938e-10       2.376263095846e-14      -1.350292857726e-13       0.000000000000e+00       4.229051846825e-11       4.918761604885e-12      -4.962363250012e-15 
   58       2.110980711313e-10       2.505582261308e-14      -1.721705209998e-13       0.000000000000e+00       4.066712783241e-11       4.750490968752e-12      -5.311177026199e-15 
   59       2.139325000786e-10       2.638705621596e-14      -2.109305797902e-13       0.000000000000e+00       3.912972640071e-11       4.590991461109e-12      -5.870749496714e-15 
   60       2.167923907011e-10       2.775618068430e-14      -2.513592431782e-13       0.000000000000e+00       3.766808849018e-11       4.439083112761e-12      -6.500154025211e-15 
   61       2.196741890588e-10       2.916294426137e-14      -2.935025770939e-13       0.000000000000e+00       3.627157668139e-11       4.293549575541e-12      -7.067746009829e-15 
   62       2.225794415495e-10       3.060681543147e-14      -3.373710785134e-13       0.000000000000e+00       3.493881134132e-11       4.154225422940e-12      -7.548488375175e-15 
   63       2.255106758731e-10       3.208712025445e-14      -3.829649665199e-13       0.000000000000e+00       3.366986419366e-11       4.021119473653e-12      -7.947008749406e-15 
   64       2.284698658974e-10       3.360309102076e-14      -4.302834579650e-13       0.000000000000e+00       3.246334968962e-11       3.894088538210e-12      -8.269496980234e-15 
   65       2.314583872368e-10       3.515386374510e-14      -4.793248034761e-13       0.000000000000e+00       3.131634203292e-11       3.772828717419e-12      -8.523779769526e-15 
   66       2.344769728316e-10       3.673847566008e-14      -5.300863234630e-13       0.000000000000e+00       3.022429220478e-11       3.656866700797e-12      -8.719395307916e-15 
   67       2.375256685260e-10       3.835586270996e-14      -5.825644441249e-13       0.000000000000e+00       2.918094498893e-11       3.545551065003e-12      -8.867667909405e-15 
   68       2.406042890178e-10       4.000496941878e-14      -6.367522379955e-13       0.000000000000e+00       2.818000977764e-11       3.438237273952e-12      -8.980317362873e-15 
   69       2.437139922826e-10       4.168510994862e-14      -6.926313863964e-13       0.000000000000e+00       2.722075159450e-11       3.334905659158e-12      -9.064792944909e-15 
   70       2.468559458346e-10       4.339567603495e-14      -7.501786455664e-13       0.000000000000e+00       2.630338910535e-11       3.235653601945e-12      -9.128123687961e-15 
   71       2.500308235263e-10       4.513603144639e-14      -8.093681707079e-13       0.000000000000e+00       2.542740363685e-11       3.140509230723e-12      -9.178336503414e-15 
   72       2.532387739237e-10       4.690551235240e-14      -8.701714881707e-13       0.000000000000e+00       2.459150105521e-11       3.049427673430e-12      -9.224493340917e-15 
   73       2.564793886831e-10       4.870342769100e-14      -9.325574676371e-13       0.000000000000e+00       2.379357364489e-11       2.962287309975e-12      -9.276728347721e-15 
   74       2.597516709264e-10       5.052905953646e-14      -9.964922943059e-13       0.000000000000e+00       2.303066198733e-11       2.878886024676e-12      -9.346285028012e-15 
   75       2.630540036173e-10       5.238166346702e-14      -1.061939441077e-12       0.000000000000e+00       2.229891683972e-11       2.798937458702e-12      -9.445553402248e-15 
   76       2.663848030352e-10       5.426031899693e-14      -1.128858987113e-12       0.000000000000e+00       2.159455472745e-11       2.722144303701e-12      -9.584423141118e-15 
   77       2.697446866768e-10       5.616344857179e-14      -1.197205491554e-12       0.000000000000e+00       2.091701016710e-11       2.648441896977e-12      -9.758493064479e-15 
   78       2.731346450640e-10       5.808921112019e-14      -1.266929679726e-12       0.000000000000e+00       2.026629167854e-11       2.577792444890e-12      -9.958769109526e-15 
   79       2.765553744256e-10       6.003564154496e-14      -1.337979021819e-12       0.000000000000e+00       1.964202160861e-11       2.510109789717e-12      -1.017511985271e-14 
   80       2.800072591218e-10       6.200064801626e-14      -1.410297691661e-12       0.000000000000e+00       1.904341838679e-11       2.445257241878e-12      -1.039623812512e-14 
   81       2.834903540687e-10       6.398200926481e-14      -1.483826525505e-12       0.000000000000e+00       1.846927878081e-11       2.383045412175e-12      -1.060960262795e-14 
   82       2.870043671626e-10       6.597737187495e-14      -1.558502980810e-12       0.000000000000e+00       1.791796015228e-11       2.323230044024e-12      -1.080143954784e-14 
   83       2.905486417044e-10       6.798424757789e-14      -1.634261095018e-12       0.000000000000e+00       1.738736271234e-11       2.265509845687e-12      -1.095668417232e-14 
   84       2.941225175286e-10       7.000025454014e-14      -1.711038179269e-12       0.000000000000e+00       1.687543988776e-11       2.209598844271e-12      -1.106210456482e-14 
   85       2.977265216740e-10       7.202389311798e-14      -1.788796264802e-12       0.000000000000e+00       1.638186550043e-11       2.155461977886e-12      -1.111635165583e-14 
   86       3.013613437949e-10       7.405389434176e-14      -1.867504152870e-12       0.000000000000e+00       1.590661172253e-11       2.103114766772e-12      -1.112151261419e-14 
   87       3.050274639610e-10       7.608898872824e-14      -1.947131066837e-12       0.000000000000e+00       1.544943680185e-11       2.052551362268e-12      -1.108011146388e-14 
   88       3.087251414468e-10       7.812790767450e-14      -2.027646724149e-12       0.000000000000e+00       1.500987619317e-11       2.003743631511e-12      -1.099512384323e-14 
   89       3.124544035207e-10       8.016938485187e-14      -2.109021408313e-12       0.000000000000e+00       1.458723368977e-11       1.956640242139e-12      -1.086999176427e-14 
   90       3.162150342344e-10       8.221215759986e-14      -2.191226040862e-12       0.000000000000e+00       1.418057255481e-11       1.911165746984e-12      -1.070863837192e-14 
   91       3.200065632118e-10       8.425496832002e-14      -2.274232253336e-12       0.000000000000e+00       1.378870665281e-11       1.867219668777e-12      -1.051548270331e-14 
   92       3.238282544387e-10       8.629656586992e-14      -2.358012459253e-12       0.000000000000e+00       1.341019158104e-11       1.824675584848e-12      -1.029545444702e-14 
   93       3.276793673674e-10       8.833560018538e-14      -2.442532693852e-12       0.000000000000e+00       1.304366739515e-11       1.783412986831e-12      -1.005355318989e-14 
   94       3.315600095049e-10       9.037028499020e-14      -2.527729745139e-12       0.000000000000e+00       1.268896501221e-11       1.743420329116e-12      -9.793418271063e-15 
   95       3.354703919232e-10       9.239868669908e-14      -2.613530700415e-12       0.000000000000e+00       1.234615058797e-11       1.704705858707e-12      -9.518570121462e-15 
   96       3.394105609963e-10       9.441882659857e-14      -2.699859845105e-12       0.000000000000e+00       1.201518476143e-11       1.667265761997e-12      -9.232855003477e-15 
   97       3.433803909274e-10       9.642868077531e-14      -2.786638635455e-12       0.000000000000e+00       1.169591861252e-11       1.631083699364e-12      -8.940453517499e-15 
   98       3.473795762761e-10       9.842618004433e-14      -2.873785671230e-12       0.000000000000e+00       1.138808961989e-11       1.596130339763e-12      -8.645889108438e-15 
   99       3.514076244856e-10       1.004092098773e-13      -2.961216668413e-12       0.000000000000e+00       1.109131761856e-11       1.562362895330e-12      -8.354036572253e-15 
  100       3.554638484101e-10       1.023756103308e-13      -3.048844431900e-12       0.000000000000e+00       1.080510075765e-11       1.529724655975e-12      -8.070130562470e-15 
  101       3.595473588422e-10       1.043231759748e-13      -3.136578828200e-12       0.000000000000e+00       1.052881145811e-11       1.498144523978e-12      -7.799774096708e-15 
  102       3.636570570396e-10       1.062496558204e-13      -3.224326758132e-12       0.000000000000e+00       1.026169237040e-11       1.467536548589e-12      -7.548947063201e-15 
  103       3.677916272528e-10       1.081527532489e-13      -3.311992129525e-12       0.000000000000e+00       1.000285233225e-11       1.437799460623e-12      -7.324014727323e-15 
  104       3.719498182546e-10       1.100302335998e-13      -3.399482065769e-12       0.000000000000e+00       9.751468396731e-12       1.408839782183e-12      -7.130261893227e-15 
  105       3.761313473354e-10       1.118802636444e-13      -3.486726545453e-12       0.000000000000e+00       9.507431704443e-12       1.380645713571e-12      -6.967251553424e-15 
  106       3.803361050616e-10       1.137011180501e-13      -3.573661377206e-12       0.000000000000e+00       9.270781729438e-12       1.353222406244e-12      -6.832852200236e-15 
  107       3.845638729332e-10       1.154910769129e-13      -3.660222241485e-12       0.000000000000e+00       9.041506243608e-12       1.326569075132e-12      -6.724648580121e-15 
