# dimensionless total lensed [l(l+1)/2pi] C_l's
# for l=2 to 2500, i.e. number of multipoles equal to 2499
#
# -> if you prefer output in CAMB/HealPix/LensPix units/order, set 'format' to 'camb' in input file
# -> if you don't want to see such a header, set 'headers' to 'no' in input file
# -> for CMB lensing (phi), these are C_l^phi-phi for the lensing potential.
#    Remember the conversion factors:
#    C_l^dd (deflection) = l(l+1) C_l^phi-phi
#    C_l^gg (shear/convergence) = 1/4 (l(l+1))^2 C_l^phi-phi
#
# 1:l     2:TT                     3:EE                     4:TE                     5:BB                     6:phiphi                 7:TPhi                   8:Ephi               
    2       1.495024724401e-10       7.296946827361e-15       4.813764235876e-13       2.390399204920e-19       8.734230077565e-09       4.856521998494e-10      -2.512507530067e-12 
    3       1.409163208532e-10       1.236215835732e-14       6.062667978138e-13       4.783118360681e-19       5.421480529172e-09       3.463836000770e-10      -2.209104706260e-12 
    4       1.324551060505e-10       1.443414525570e-14       6.271427161519e-13       7.976937718883e-19       3.775069528848e-09       2.635878405025e-10      -1.762188790137e-12 
    5       1.257505502006e-10       1.334932876918e-14       5.873185300455e-13       1.197472641695e-18       2.817197782621e-09       2.091075537865e-10      -1.308038328564e-12 
    6       1.208100368548e-10       1.030134485330e-14       5.168467682348e-13       1.677988545253e-18       2.198638086772e-09       1.707229508806e-10      -8.937896396595e-13 
    7       1.173386864308e-10       6.828519521865e-15       4.360956967417e-13       2.239623500434e-18       1.772745241364e-09       1.424068511024e-10      -5.436971390304e-13 
    8       1.150162707778e-10       4.036628300153e-15       3.573394087001e-13       2.882788957232e-18       1.465256725215e-09       1.207847588132e-10      -2.685298077512e-13 
    9       1.135986025676e-10       2.335511461662e-15       2.878432970129e-13       3.607912587374e-18       1.234304887657e-09       1.038183175828e-10      -6.990918737942e-14 
   10       1.128711544510e-10       1.573556530475e-15       2.316632625718e-13       4.415424870329e-18       1.055338724430e-09       9.024281134425e-11       5.749325784530e-14 
   11       1.126935066502e-10       1.349322080727e-15       1.905053795397e-13       5.305746002514e-18       8.886850301879e-10       7.949327726111e-11       1.232678651276e-13 
   12       1.129575082302e-10       1.292871643162e-15       1.640609139218e-13       6.279273641076e-18       7.765240177004e-10       7.027204900069e-11       1.420471187387e-13 
   13       1.135434516004e-10       1.206453437238e-15       1.505753669186e-13       7.336371957427e-18       6.844530934374e-10       6.273325726757e-11       1.276081284332e-13 
   14       1.143526398860e-10       1.061967313532e-15       1.474680588493e-13       8.477362420219e-18       6.078479731773e-10       5.619388701844e-11       9.269400187571e-14 
   15       1.153914689919e-10       9.192479782322e-16       1.517254741657e-13       9.702516654899e-18       5.433670566914e-10       5.072984484002e-11       4.954835478074e-14 
   16       1.166210418364e-10       8.396368696747e-16       1.603589717037e-13       1.101205164037e-17       4.885433208166e-10       4.609996266097e-11       7.262219453456e-15 
   17       1.179585861107e-10       8.404719468404e-16       1.708613950466e-13       1.240612740610e-17       4.415135307778e-10       4.210500324028e-11      -2.784166845011e-14 
   18       1.194081562481e-10       8.944656251493e-16       1.813368546274e-13       1.388484606507e-17       4.006931883935e-10       3.855886108954e-11      -5.224046385250e-14 
   19       1.209774614668e-10       9.689573954793e-16       1.908394156624e-13       1.544826070551e-17       3.654359544967e-10       3.543079204116e-11      -6.504178127256e-14 
   20       1.226104072758e-10       1.030407349624e-15       1.986704857810e-13       1.709636714555e-17       3.343821861913e-10       3.266625644728e-11      -6.704745671135e-14 
   21       1.243191992525e-10       1.081777502290e-15       2.048640419167e-13       1.882912910805e-17       3.070444651207e-10       3.022038653973e-11      -6.038151401744e-14 
   22       1.261038932255e-10       1.141238908433e-15       2.098082069793e-13       2.064646836934e-17       2.827694512423e-10       2.801154524305e-11      -4.838620387802e-14 
   23       1.279532397719e-10       1.228153776515e-15       2.140026436431e-13       2.254829468478e-17       2.612236566875e-10       2.600919240117e-11      -3.402789257541e-14 
   24       1.298345536104e-10       1.361051222547e-15       2.180463621404e-13       2.453449589094e-17       2.419091628058e-10       2.418056761538e-11      -2.043139385889e-14 
   25       1.317652072769e-10       1.540293202294e-15       2.223927739864e-13       2.660497279629e-17       2.245990745315e-10       2.253530796575e-11      -9.433146340207e-15 
   26       1.337582859408e-10       1.758835099755e-15       2.274147968914e-13       2.875962707065e-17       2.089804183591e-10       2.107582733910e-11      -2.352530604619e-15 
   27       1.357946645430e-10       2.010309815111e-15       2.331492514456e-13       3.099839181931e-17       1.948659553421e-10       1.976885175752e-11       6.274457464796e-16 
   28       1.378381503827e-10       2.288375906112e-15       2.394539169267e-13       3.332122385034e-17       1.820124179095e-10       1.856316832226e-11      -1.010971759597e-16 
   29       1.398984634100e-10       2.592535949191e-15       2.460267864968e-13       3.572813889390e-17       1.703542462696e-10       1.745461200846e-11      -3.748349976051e-15 
   30       1.419900301431e-10       2.923987590889e-15       2.524196784955e-13       3.821919191019e-17       1.597663446990e-10       1.644501808666e-11      -9.114366130023e-15 
   31       1.441168997136e-10       3.283312258517e-15       2.581049629077e-13       4.079447699489e-17       1.500328477850e-10       1.552682397098e-11      -1.478616360724e-14 
   32       1.462819878611e-10       3.668413495437e-15       2.627043552334e-13       4.345415090059e-17       1.411035684677e-10       1.469039170039e-11      -1.988950598337e-14 
   33       1.484785659603e-10       4.075706393686e-15       2.658349731419e-13       4.619842672362e-17       1.329154408956e-10       1.391748955900e-11      -2.359147988860e-14 
   34       1.506937164924e-10       4.502083784114e-15       2.671290992755e-13       4.902756766582e-17       1.253539698934e-10       1.318596868531e-11      -2.512490016333e-14 
   35       1.529340031669e-10       4.950147236922e-15       2.665246697977e-13       5.194186863223e-17       1.183805126468e-10       1.249636858969e-11      -2.458483981350e-14 
   36       1.552071244306e-10       5.424872548817e-15       2.640788550975e-13       5.494167608234e-17       1.119391810379e-10       1.185375369227e-11      -2.242137833712e-14 
   37       1.575154005392e-10       5.931433655956e-15       2.598895793842e-13       5.802737303657e-17       1.059462078281e-10       1.126031058998e-11      -1.919036008281e-14 
   38       1.598593191397e-10       6.472200344452e-15       2.540767051905e-13       6.119929559906e-17       1.003861453985e-10       1.071507416771e-11      -1.537708154947e-14 
   39       1.622339298783e-10       7.048795426685e-15       2.468000317119e-13       6.445779414999e-17       9.524138446950e-11       1.021356858953e-11      -1.152962739633e-14 
   40       1.646270073537e-10       7.662900775413e-15       2.382681895479e-13       6.780325876307e-17       9.046289068954e-11       9.747469338926e-12      -8.315634225929e-15 
   41       1.670246736133e-10       8.315924690982e-15       2.286793947263e-13       7.123608081765e-17       8.598729584897e-11       9.307269825412e-12      -6.354418201284e-15 
   42       1.694321335614e-10       9.007870063627e-15       2.180133182503e-13       7.475651707197e-17       8.180145317235e-11       8.892097293726e-12      -5.629827201378e-15 
   43       1.718585227095e-10       9.738100356145e-15       2.061765020206e-13       7.836478535567e-17       7.789428271988e-11       8.502551744806e-12      -5.898719401044e-15 
   44       1.743109196081e-10       1.050562093753e-14       1.930574891277e-13       8.206110111348e-17       7.423739967072e-11       8.137880293901e-12      -6.845187343468e-15 
   45       1.767940072400e-10       1.130942333706e-14       1.785316297515e-13       8.584564034150e-17       7.079525951700e-11       7.796432862376e-12      -8.125191015719e-15 
   46       1.793095484098e-10       1.214969122208e-14       1.624802656740e-13       8.971841621802e-17       6.756245718222e-11       7.477464506403e-12      -9.527362378448e-15 
   47       1.818563118002e-10       1.302691851610e-14       1.447750770305e-13       9.367936484303e-17       6.453523523261e-11       7.179674995811e-12      -1.085233951832e-14 
   48       1.844298799250e-10       1.394157466556e-14       1.252715587137e-13       9.772837617821e-17       6.170023338250e-11       6.900603435542e-12      -1.186586347933e-14 
   49       1.870223849090e-10       1.489410427511e-14       1.038080760088e-13       1.018652914985e-16       5.903377434613e-11       6.636545413169e-12      -1.229695228666e-14 
   50       1.896257278964e-10       1.588488464014e-14       8.024996941824e-14       1.060898974226e-16       5.650899671320e-11       6.383627217009e-12      -1.192444128050e-14 
   51       1.922428804774e-10       1.691408560088e-14       5.463817360677e-14       1.104019120068e-16       5.412119291953e-11       6.141564458036e-12      -1.086853328844e-14 
   52       1.948791941853e-10       1.798177101686e-14       2.707930699648e-14       1.148009904712e-16       5.186811453319e-11       5.910780467792e-12      -9.375230140084e-15 
   53       1.975390870761e-10       1.908793525457e-14      -2.294703888564e-15       1.192867256455e-16       4.974238965252e-11       5.691310668814e-12      -7.737160179777e-15 
   54       2.002259434437e-10       2.023250084142e-14      -3.332544882530e-14       1.238586452599e-16       4.773117802968e-11       5.482774172519e-12      -6.295910705133e-15 
   55       2.029421503243e-10       2.141535645350e-14      -6.586599493968e-14       1.285162641229e-16       4.582008985347e-11       5.284574736317e-12      -5.361894428777e-15 
   56       2.056894473713e-10       2.263648730410e-14      -9.990850625068e-14       1.332592620417e-16       4.400687218836e-11       5.096627161805e-12      -4.945293884271e-15 
   57       2.084684882401e-10       2.389587303728e-14      -1.354862684102e-13       1.380873453555e-16       4.229051846243e-11       4.918761600954e-12      -4.962363283735e-15 
   58       2.112786185251e-10       2.519344947441e-14      -1.726376713265e-13       1.430001953613e-16       4.066712782669e-11       4.750490964739e-12      -5.311177095398e-15 
   59       2.141177808047e-10       2.652910783955e-14      -2.114065583715e-13       1.479974677434e-16       3.912972639509e-11       4.590991457098e-12      -5.870749521971e-15 
   60       2.169824196856e-10       2.790269398494e-14      -2.518425755880e-13       1.530787920021e-16       3.766808848465e-11       4.439083108904e-12      -6.500153979013e-15 
   61       2.198689792029e-10       2.931395313070e-14      -2.939916540915e-13       1.582438495741e-16       3.627157667595e-11       4.293549572048e-12      -7.067745912817e-15 
   62       2.227790025970e-10       3.076235134184e-14      -3.378641708458e-13       1.634926299753e-16       3.493881133596e-11       4.154225420025e-12      -7.548488255217e-15 
   63       2.257150139459e-10       3.224721242300e-14      -3.834602283820e-13       1.688252314006e-16       3.366986418839e-11       4.021119471507e-12      -7.947008630046e-15 
   64       2.286789832689e-10       3.376776641447e-14      -4.307789263944e-13       1.742417889934e-16       3.246334968443e-11       3.894088537006e-12      -8.269496879866e-15 
   65       2.316722820957e-10       3.532314708876e-14      -4.798183978824e-13       1.797424767713e-16       3.131634202781e-11       3.772828717301e-12      -8.523779700534e-15 
   66       2.346956390353e-10       3.691238944736e-14      -5.305758452903e-13       1.853275095523e-16       3.022429219975e-11       3.656866701878e-12      -8.719395275773e-15 
   67       2.377490953443e-10       3.853442721729e-14      -5.830475766495e-13       1.909971448806e-16       2.918094498396e-11       3.545551067361e-12      -8.867667911740e-15 
   68       2.408324609605e-10       4.018820283391e-14      -6.372265425920e-13       1.967516730847e-16       2.818000977275e-11       3.438237277622e-12      -8.980317390255e-15 
   69       2.439468892196e-10       4.187302886325e-14      -6.930942870819e-13       2.025913808110e-16       2.722075158967e-11       3.334905664124e-12      -9.064792987264e-15 
   70       2.470935428656e-10       4.358829565267e-14      -7.506274231222e-13       2.085165835267e-16       2.630338910059e-11       3.235653608129e-12      -9.128123736438e-15 
   71       2.502730907534e-10       4.533336569134e-14      -8.097999602939e-13       2.145276383268e-16       2.542740363216e-11       3.140509237982e-12      -9.178336550606e-15 
   72       2.534856762182e-10       4.710757398370e-14      -8.705832769813e-13       2.206249455562e-16       2.459150105058e-11       3.049427681546e-12      -9.224493381092e-15 
   73       2.567308854431e-10       4.891022842306e-14      -9.329460925966e-13       2.268089504321e-16       2.379357364031e-11       2.962287318649e-12      -9.276728377063e-15 
   74       2.600077158278e-10       5.074061016507e-14      -9.968544398045e-13       2.330801446662e-16       2.303066198282e-11       2.878886033524e-12      -9.346285044869e-15 
   75       2.633145443572e-10       5.259797400132e-14      -1.062271636747e-12       2.394390680871e-16       2.229891683527e-11       2.798937467245e-12      -9.445553407388e-15 
   76       2.666497815265e-10       5.448139870768e-14      -1.129157601016e-12       2.458862114780e-16       2.159455472305e-11       2.722144311388e-12      -9.584423137464e-15 
   77       2.700140407084e-10       5.638930575823e-14      -1.197466708543e-12       2.524217010487e-16       2.091701016276e-11       2.648441903308e-12      -9.758493055133e-15 
   78       2.734083087503e-10       5.831985311737e-14      -1.267149491991e-12       2.590455591058e-16       2.026629167425e-11       2.577792449459e-12      -9.958769097210e-15 
   79       2.768332782227e-10       6.027107481992e-14      -1.338153223765e-12       2.657577973357e-16       1.964202160438e-11       2.510109792218e-12      -1.017511983970e-14 
   80       2.802893298454e-10       6.224087826820e-14      -1.410421874737e-12       2.725584164014e-16       1.904341838261e-11       2.445257242123e-12      -1.039623811320e-14 
   81       2.837765149139e-10       6.422704152921e-14      -1.483896072973e-12       2.794474055391e-16       1.846927877667e-11       2.383045410107e-12      -1.060960261830e-14 
   82       2.872945377257e-10       6.622721063176e-14      -1.558513062461e-12       2.864247421551e-16       1.791796014819e-11       2.323230039727e-12      -1.080143954104e-14 
   83       2.908427380065e-10       6.823889686365e-14      -1.634206661836e-12       2.934903914219e-16       1.738736270830e-11       2.265509839403e-12      -1.095668416825e-14 
   84       2.944204520250e-10       7.025971802907e-14      -1.710913968010e-12       3.006443212496e-16       1.687543988377e-11       2.209598836380e-12      -1.106210456271e-14 
   85       2.980282032151e-10       7.228817409525e-14      -1.788596834348e-12       3.078865509329e-16       1.638186549648e-11       2.155461968778e-12      -1.111635165487e-14 
   86       3.016666776311e-10       7.432299577391e-14      -1.867223894001e-12       3.152171098668e-16       1.590661171863e-11       2.103114756813e-12      -1.112151261369e-14 
   87       3.053363517641e-10       7.636291337046e-14      -1.946764202607e-12       3.226360227462e-16       1.544943679798e-11       2.052551351797e-12      -1.108011146324e-14 
   88       3.090374813335e-10       7.840665818129e-14      -2.027187310381e-12       3.301433094210e-16       1.500987618935e-11       2.003743620835e-12      -1.099512384202e-14 
   89       3.127700900774e-10       8.045296389110e-14      -2.108463334197e-12       3.377389847516e-16       1.458723368599e-11       1.956640231524e-12      -1.086999176219e-14 
   90       3.165339585433e-10       8.250056797024e-14      -2.190563029677e-12       3.454230584634e-16       1.418057255107e-11       1.911165736655e-12      -1.070863836883e-14 
   91       3.203286128793e-10       8.454821307200e-14      -2.273457863276e-12       3.531955350021e-16       1.378870664910e-11       1.867219658912e-12      -1.051548269926e-14 
   92       3.241533136247e-10       8.659464842993e-14      -2.357120084371e-12       3.610564133889e-16       1.341019157738e-11       1.824675575571e-12      -1.029545444225e-14 
   93       3.280073163704e-10       8.863852484776e-14      -2.441515577028e-12       3.690058040440e-16       1.304366739152e-11       1.783412978219e-12      -1.005355318482e-14 
   94       3.318907229324e-10       9.067805856768e-14      -2.526581028938e-12       3.770442996736e-16       1.268896500862e-11       1.743420321228e-12      -9.793418266114e-15 
   95       3.358037380659e-10       9.271131919607e-14      -2.612243445990e-12       3.851726601561e-16       1.234615058442e-11       1.704705851596e-12      -9.518570117010e-15 
   96       3.397464016248e-10       9.473633154402e-14      -2.698427039968e-12       3.933917019843e-16       1.201518475790e-11       1.667265755707e-12      -9.232854999850e-15 
   97       3.437185810851e-10       9.675107556398e-14      -2.785053201524e-12       4.017022997261e-16       1.169591860903e-11       1.631083693930e-12      -8.940453514971e-15 
   98       3.477199640671e-10       9.875348628643e-14      -2.872040473154e-12       4.101053874853e-16       1.138808961644e-11       1.596130335211e-12      -8.645889107225e-15 
   99       3.517500508583e-10       1.007414537566e-13      -2.959304522170e-12       4.186019603621e-16       1.109131761514e-11       1.562362891673e-12      -8.354036572505e-15 
  100       3.558081469362e-10       1.027128229712e-13      -3.046758113678e-12       4.271930759137e-16       1.080510075426e-11       1.529724653216e-12      -8.070130564266e-15 
  101       3.598933554906e-10       1.046653938148e-13      -3.134311083548e-12       4.358798556152e-16       1.052881145475e-11       1.498144522108e-12      -7.799774100048e-15 
  102       3.640045699471e-10       1.065969209971e-13      -3.221870311390e-12       4.446634863200e-16       1.026169236707e-11       1.467536547584e-12      -7.548947068004e-15 
  103       3.681404664891e-10       1.085051139890e-13      -3.309339693529e-12       4.535452217206e-16       1.000285232895e-11       1.437799460445e-12      -7.324014733417e-15 
  104       3.722997862201e-10       1.103877445676e-13      -3.396626340487e-12       4.625262522616e-16       9.751468393466e-12       1.408839782780e-12      -7.130261900361e-15 
  105       3.764822411637e-10       1.122429861320e-13      -3.483660181086e-12       4.716072917202e-16       9.507431701209e-12       1.380645714884e-12      -6.967251561336e-15 
  106       3.806877172809e-10       1.140691203195e-13      -3.570376968520e-12       4.807889372420e-16       9.270781726235e-12       1.353222408209e-12      -6.832852208674e-15 
  107       3.849159915172e-10       1.158644345963e-13      -3.656712333202e-12       4.900717959161e-16       9.041506240435e-12       1.326569077677e-12      -6.724648588842e-15 
